  time (s)              T(t) (K)              P(t) (Pa)           Kinetic En. (n.u.)     Potential En. (n.u.) Total En. (n.u.)
  0.0000e+00           99.70717396            0.00000000        5262.70315446       -18404.09512167       -13141.39196721 
  5.0000e-15           98.87096465            0.00000000        5218.56669756       -18315.77489321       -13097.20819565 
  1.0000e-14           97.48141457            0.00000000        5145.22403526       -18169.01200867       -13023.78797341 
  1.5000e-14           95.55533286            0.00000000        5043.56238049       -17965.56713645       -12922.00475596 
  2.0000e-14           93.11812408            0.00000000        4914.92262633       -17708.10317744       -12793.18055112 
  2.5000e-14           90.20627325            0.00000000        4761.23051063       -17400.44868951       -12639.21817887 
  3.0000e-14           86.87030577            0.00000000        4585.15284333       -17047.91261661       -12462.75977327 
  3.5000e-14           83.17787346            0.00000000        4390.26039611       -16657.61407534       -12267.35367923 
  4.0000e-14           79.21638356            0.00000000        4181.16666084       -16238.76592107       -12057.59926023 
  4.5000e-14           75.09432431            0.00000000        3963.59782045       -15802.82236944       -11839.22454899 
  5.0000e-14           70.94025376            0.00000000        3744.33937316       -15363.37988106       -11619.04050790 
  5.5000e-14           66.89847242            0.00000000        3531.00772837       -14935.72485103       -11404.71712266 
  6.0000e-14           63.12087008            0.00000000        3331.61987138       -14535.97064796       -11204.35077657 
  6.5000e-14           59.75536745            0.00000000        3153.98329184       -14179.82627463       -11025.84298279 
  7.0000e-14           56.93254118            0.00000000        3004.99003374       -13881.16604258       -10876.17600884 
  7.5000e-14           54.75293729            0.00000000        2889.94707546       -13650.67050870       -10760.72343324 
  8.0000e-14           53.27772895            0.00000000        2812.08323378       -13494.82637807       -10682.74314429 
  8.5000e-14           52.52458815            0.00000000        2772.33126540       -13415.48742322       -10643.15615781 
  9.0000e-14           52.46924450            0.00000000        2769.41013949       -13410.04612984       -10640.63599036 
  9.5000e-14           53.05181764            0.00000000        2800.15927608       -13472.11546515       -10671.95618907 
  1.0000e-13           54.18614719            0.00000000        2860.03099260       -13592.52802006       -10732.49702745 
  1.0500e-13           55.77016321            0.00000000        2943.63787661       -13760.44215260       -10816.80427599 
  1.1000e-13           57.69568236            0.00000000        3045.26983845       -13964.38309041       -10919.11325196 
  1.1500e-13           59.85659167            0.00000000        3159.32606726       -14193.10967762       -11033.78361035 
  1.2000e-13           62.15495340            0.00000000        3280.63725320       -14436.25860272       -11155.62134952 
  1.2500e-13           64.50500037            0.00000000        3404.67646844       -14684.76413091       -11280.08766247 
  1.3000e-13           66.83526398            0.00000000        3527.67148617       -14931.07989455       -11403.40840838 
  1.3500e-13           69.08921079            0.00000000        3646.63838231       -15169.24311181       -11522.60472949 
  1.4000e-13           71.22479851            0.00000000        3759.35809697       -15394.82501733       -11635.46692036 
  1.4500e-13           73.21333178            0.00000000        3864.31604451       -15604.80793120       -11740.49188669 
  1.5000e-13           75.03793013            0.00000000        3960.62124627       -15797.42200984       -11836.80076357 
  1.5500e-13           76.69183527            0.00000000        4047.91698862       -15971.96564348       -11924.04865486 
  1.6000e-13           78.17670359            0.00000000        4126.29069952       -16128.62474996       -12002.33405044 
  1.6500e-13           79.50096462            0.00000000        4196.18730163       -16268.29931583       -12072.11201420 
  1.7000e-13           80.67828221            0.00000000        4258.32799568       -16392.44095601       -12134.11296034 
  1.7500e-13           81.72613065            0.00000000        4313.63510239       -16502.90266408       -12189.26756169 
  1.8000e-13           82.66448479            0.00000000        4363.16292555       -16601.80062752       -12238.63770197 
  1.8500e-13           83.51461898            0.00000000        4408.03435977       -16691.38750651       -12283.35314673 
  1.9000e-13           84.29801273            0.00000000        4449.38312717       -16773.93687662       -12324.55374944 
  1.9500e-13           85.03537288            0.00000000        4488.30216831       -16851.63981950       -12363.33765119 
  2.0000e-13           85.74580256            0.00000000        4525.79977623       -16926.51683184       -12400.71705561 
  2.0500e-13           86.44616652            0.00000000        4562.76609929       -17000.35041670       -12437.58431741 
  2.1000e-13           87.15070660            0.00000000        4599.95284470       -17074.64424754       -12474.69140284 
  2.1500e-13           87.87093559            0.00000000        4637.96767602       -17150.61212394       -12512.64444793 
  2.2000e-13           88.61578384            0.00000000        4677.28195080       -17229.19408713       -12551.91213633 
  2.2500e-13           89.39191075            0.00000000        4718.24716274       -17311.09025494       -12592.84309220 
  2.3000e-13           90.20405398            0.00000000        4761.11337390       -17396.79859749       -12635.68522359 
  2.3500e-13           91.05529539            0.00000000        4806.04324881       -17486.64352163       -12680.60027282 
  2.4000e-13           91.94717508            0.00000000        4853.11807689       -17580.78784245       -12727.66976556 
  2.4500e-13           92.87966343            0.00000000        4902.33629412       -17679.22921089       -12776.89291677 
  2.5000e-13           93.85107196            0.00000000        4953.60878084       -17781.78983469       -12828.18105385 
  2.5500e-13           94.85801761            0.00000000        5006.75697280       -17888.11198332       -12881.35501052 
  2.6000e-13           95.89553357            0.00000000        5061.51871480       -17997.66947553       -12936.15076073 
  2.6500e-13           96.95735583            0.00000000        5117.56338193       -18109.79825595       -12992.23487402 
  2.7000e-13           98.03634191            0.00000000        5174.51398235       -18223.74124456       -13049.22726221 
  2.7500e-13           99.12493576            0.00000000        5231.97169618       -18338.69804181       -13106.72634563 
  2.8000e-13          100.21559107            0.00000000        5289.53821733       -18453.87004630       -13164.33182896 
  2.8500e-13          101.30108832     97559515.16734315        5346.83248803       -18568.49417221       -13221.66168417 
  2.9000e-13          102.37106044    185378768.55583572        5403.30731743       -18681.47558270       -13278.16826527 
  2.9500e-13          103.42314037            0.00000000        5458.83776901       -18792.56683474       -13333.72906572 
  3.0000e-13          104.45143035     80279941.30162549        5513.11254898       -18901.14701600       -13388.03446702 
  3.0500e-13          105.45104135     80128942.20313980        5565.87360632       -19006.70244702       -13440.82884071 
  3.1000e-13          106.41449463            0.00000000        5616.72620245       -19108.44542914       -13491.71922669 
  3.1500e-13          107.33628635    182004482.95333287        5665.37983474       -19205.79527790       -13540.41544317 
  3.2000e-13          108.20012715    160341512.28391656        5710.97472550       -19297.03433390       -13586.05960839 
  3.2500e-13          109.00266482     92108259.26900581        5753.33393983       -19381.80137388       -13628.46743406 
  3.3000e-13          109.74354126    149551518.84310392        5792.43857614       -19460.05440391       -13667.61582776 
  3.3500e-13          110.41553257     67508882.57292999        5827.90734535       -19531.02778007       -13703.12043472 
  3.4000e-13          111.01257083    143096916.26966429        5859.41997404       -19594.07855225       -13734.65857821 
  3.4500e-13          111.53365708    444046495.98884952        5886.92373504       -19649.10124611       -13762.17751107 
  3.5000e-13          111.97058992    132824310.72763799        5909.98574452       -19695.23364079       -13785.24789626 
  3.5500e-13          112.32907818     82224734.07433450        5928.90732486       -19733.07483715       -13804.16751229 
  3.6000e-13          112.60797149    225997835.95795420        5943.62775739       -19762.50072971       -13818.87297232 
  3.6500e-13          112.81504656    252789786.78698301        5954.55750850       -19784.33182884       -13829.77432035 
  3.7000e-13          112.95617484    237012985.32827637        5962.00648346       -19799.18544760       -13837.17896414 
  3.7500e-13          113.04305426    269826139.95688450        5966.59211785       -19808.29805932       -13841.70594147 
  3.8000e-13          113.08644789    545555936.86585343        5968.88250214       -19812.81190432       -13843.92940218 
  3.8500e-13          113.09437818    146649336.55761001        5969.30107583       -19813.58618940       -13844.28511358 
  3.9000e-13          113.08130075     62401587.84622353        5968.61082830       -19812.16145043       -13843.55062213 
  3.9500e-13          113.05671316    214877302.09302303        5967.31305624       -19809.55038133       -13842.23732509 
  4.0000e-13          113.02309719    141433224.53535828        5965.53875159       -19806.01512654       -13840.47637496 
  4.0500e-13          112.98245319     72342070.27600847        5963.39349684       -19801.75710900       -13838.36361216 
  4.1000e-13          112.93386711    185853892.13938677        5960.82904598       -19796.66461435       -13835.83556837 
  4.1500e-13          112.87541997    203686974.62395859        5957.74411321       -19790.52494957       -13832.78083636 
  4.2000e-13          112.79011022    224467815.99438551        5953.24132884       -19781.54616891       -13828.30484007 
  4.2500e-13          112.69340918    125569499.64547218        5948.13729460       -19771.35589022       -13823.21859563 
  4.3000e-13          112.58196458    290255655.39776760        5942.25507114       -19759.59885140       -13817.34378025 
  4.3500e-13          112.45792129    312476272.17791915        5935.70786929       -19746.50125210       -13810.79338281 
  4.4000e-13          112.31271359    129049135.46960627        5928.04357616       -19731.15630917       -13803.11273301 
  4.4500e-13          112.15849195    378827703.82720792        5919.90351244       -19714.84956817       -13794.94605573 
  4.5000e-13          112.00273977     83294405.92841639        5911.68266511       -19698.38187151       -13786.69920640 
  4.5500e-13          111.84474698    212739179.06792518        5903.34355425       -19681.68825702       -13778.34470277 
  4.6000e-13          111.69240017    347324624.38402826        5895.30244745       -19665.61090585       -13770.30845840 
  4.6500e-13          111.54825849    134621080.60472354        5887.69442025       -19650.42133968       -13762.72691943 
  4.7000e-13          111.40434878    205310463.43345347        5880.09863716       -19635.27566231       -13755.17702515 
  4.7500e-13          111.25096410            0.00000000        5872.00274988       -19619.14810190       -13747.14535202 
  4.8000e-13          111.08428546     55435048.45176022        5863.20518652       -19601.61658736       -13738.41140084 
  4.8500e-13          110.89764396    168614966.64289400        5853.35395116       -19581.95825002       -13728.60429885 
  4.9000e-13          110.68794901    204003880.12334284        5842.28591832       -19559.83274527       -13717.54682695 
  4.9500e-13          110.44992985    162480790.94202343        5829.72288876       -19534.68109583       -13704.95820707 
  5.0000e-13          110.18874131    183344235.24855372        5815.93694219       -19507.05478561       -13691.11784342 
  5.0500e-13          109.91108326    347947879.06680202        5801.28170908       -19477.67035658       -13676.38864750 
  5.1000e-13          109.63218112    253970823.21104363        5786.56081086       -19448.14453382       -13661.58372296 
  5.1500e-13          109.36100259    446822295.39322144        5772.24757661       -19419.43143893       -13647.18386232 
  5.2000e-13          109.10927459    443021981.16082764        5758.96097259       -19392.78130958       -13633.82033699 
  5.2500e-13          108.88904320    149278003.53252083        5747.33680970       -19369.48129588       -13622.14448618 
  5.3000e-13          108.70819759    321436783.26982081        5737.79149098       -19350.37716346       -13612.58567248 
  5.3500e-13          108.56684422    453599433.16422594        5730.33063556       -19335.48772649       -13605.15709093 
  5.4000e-13          108.44984719    441130591.36984015        5724.15534637       -19323.20860163       -13599.05325526 
  5.4500e-13          108.35336146    426765420.21883667        5719.06267607       -19313.11489509       -13594.05221902 
  5.5000e-13          108.27121765     83056992.24337359        5714.72699532       -19304.53582559       -13589.80883027 
  5.5500e-13          108.18330081    319448678.03835422        5710.08660478       -19295.33379380       -13585.24718902 
  5.6000e-13          108.07744072     95430645.81286892        5704.49914048       -19284.21611136       -13579.71697088 
  5.6500e-13          107.94659685    555304479.42458689        5697.59299343       -19270.43334866       -13572.84035524 
  5.7000e-13          107.78741189    161288477.41103473        5689.19095809       -19253.62852082       -13564.43756273 
  5.7500e-13          107.59640427     51239610.42788187        5679.10927211       -19233.43154428       -13554.32227216 
  5.8000e-13          107.37809514     81343035.04848653        5667.58656938       -19210.32198677       -13542.73541739 
  5.8500e-13          107.14259162    213976446.47691667        5655.15631882       -19185.37523474       -13530.21891592 
  5.9000e-13          106.88917408    246685742.82347286        5641.78053841       -19158.53698067       -13516.75644226 
  5.9500e-13          106.64196740    267543043.91181153        5628.73257686       -19132.36155476       -13503.62897790 
  6.0000e-13          106.40827877    284677923.41253477        5616.39811954       -19107.63043482       -13491.23231528 
  6.0500e-13          106.20340943    172016164.79011148        5605.58478976       -19085.96407550       -13480.37928574 
  6.1000e-13          106.02274283    107693836.12477291        5596.04891950       -19066.88096613       -13470.83204663 
  6.1500e-13          105.87229023     79578077.71843971        5588.10779216       -19051.00564305       -13462.89785089 
  6.2000e-13          105.75274916    234884181.25371903        5581.79822461       -19038.40264943       -13456.60442482 
  6.2500e-13          105.65068765    192617459.79022762        5576.41125585       -19027.64440379       -13451.23314794 
  6.3000e-13          105.56722454     55451427.46953126        5572.00594017       -19018.84387982       -13446.83793965 
  6.3500e-13          105.50417957    117098355.61534172        5568.67832628       -19012.19081279       -13443.51248651 
  6.4000e-13          105.43691800     96554755.04412480        5565.12815382       -19005.09379041       -13439.96563659 
  6.4500e-13          105.38495840    115911395.64008583        5562.38564359       -18999.60928296       -13437.22363938 
  6.5000e-13          105.35845715    178438027.06141698        5560.98686512       -18996.81270243       -13435.82583731 
  6.5500e-13          105.35407134    225258646.79266965        5560.75537520       -18996.35367894       -13435.59830374 
  6.6000e-13          105.37163869     74817872.20008011        5561.68260781       -18998.21835854       -13436.53575072 
  6.6500e-13          105.40672936    194384601.21639711        5563.53474926       -19001.94328426       -13438.40853500 
  6.7000e-13          105.45657456    119427764.76047049        5566.16565831       -19007.23957378       -13441.07391547 
  6.7500e-13          105.51004696    157850465.13894004        5568.98801629       -19012.92693750       -13443.93892121 
  6.8000e-13          105.55809415    259916642.79014966        5571.52402364       -19018.03984784       -13446.51582419 
  6.8500e-13          105.59527519            0.00000000        5573.48649818       -19021.99045961       -13448.50396143 
  6.9000e-13          105.61458274    149542691.28546879        5574.50558131       -19024.03206627       -13449.52648496 
  6.9500e-13          105.61110580     62720478.76693711        5574.32206260       -19023.65063146       -13449.32856887 
  7.0000e-13          105.58809328    132437456.42478625        5573.10742516       -19021.20089383       -13448.09346867 
  7.0500e-13          105.54637097    152183399.94643563        5570.90525558       -19016.78096801       -13445.87571243 
  7.1000e-13          105.48718637     63512848.99416600        5567.78139822       -19010.53013812       -13442.74873989 
  7.1500e-13          105.41234734    331452869.10403204        5563.83127529       -19002.63353629       -13438.80226100 
  7.2000e-13          105.31833383     32304165.90602782        5558.86909260       -18992.71272299       -13433.84363040 
  7.2500e-13          105.20553965            0.00000000        5552.91563646       -18980.80105848       -13427.88542202 
  7.3000e-13          105.07479672    146335999.12737635        5546.01481679       -18966.98439399       -13420.96957719 
  7.3500e-13          104.92883499    242231223.60984215        5538.31072453       -18951.55541955       -13413.24469501 
  7.4000e-13          104.76642578    309593411.31155527        5529.73850825       -18934.39060624       -13404.65209799 
  7.4500e-13          104.58758342    196560849.53306746        5520.29892409       -18915.49536508       -13395.19644099 
  7.5000e-13          104.39714024    190833194.06853583        5510.24703064       -18895.38262943       -13385.13559880 
  7.5500e-13          104.19188087     46792446.94066592        5499.41311465       -18873.70651305       -13374.29339840 
  7.6000e-13          103.98031402    209012065.90088600        5488.24627989       -18851.36445861       -13363.11817872 
  7.6500e-13          103.75643036    130233306.24290697        5476.42934442       -18827.71579312       -13351.28644870 
  7.7000e-13          103.53259123    235398574.91479194        5464.61475924       -18804.06362139       -13339.44886215 
  7.7500e-13          103.30473103    234539533.39527857        5452.58793556       -18779.97705592       -13327.38912036 
  7.8000e-13          103.07343656    273633343.09352577        5440.37984590       -18755.52322834       -13315.14338244 
  7.8500e-13          102.84409178    114951658.84477478        5428.27466378       -18731.28077738       -13303.00611360 
  7.9000e-13          102.62793036    160566446.94702017        5416.86532056       -18708.43631469       -13291.57099413 
  7.9500e-13          102.42798543    101879423.85242376        5406.31190896       -18687.31456260       -13281.00265364 
  8.0000e-13          102.24689731    105982145.40353614        5396.75379020       -18668.19340611       -13271.43961590 
